date,equity
2021-01-01 00:00:00+05:30,1000000.0
2021-01-01 00:00:00+05:30,1000000.0
2021-01-04 00:00:00+05:30,1000000.0
2021-01-05 00:00:00+05:30,1000000.0
2021-01-06 00:00:00+05:30,1000000.0
2021-01-07 00:00:00+05:30,1000000.0
2021-01-08 00:00:00+05:30,1000000.0
2021-01-11 00:00:00+05:30,1000000.0
2021-01-12 00:00:00+05:30,1000000.0
2021-01-13 00:00:00+05:30,1000000.0
2021-01-14 00:00:00+05:30,1000000.0
2021-01-15 00:00:00+05:30,1000000.0
2021-01-18 00:00:00+05:30,1000000.0
2021-01-19 00:00:00+05:30,1000000.0
2021-01-20 00:00:00+05:30,1000000.0
2021-01-21 00:00:00+05:30,1000000.0
2021-01-22 00:00:00+05:30,1000000.0
2021-01-25 00:00:00+05:30,1000000.0
2021-01-27 00:00:00+05:30,1000000.0
2021-01-28 00:00:00+05:30,1000000.0
2021-01-29 00:00:00+05:30,1000000.0
2021-02-01 00:00:00+05:30,1000000.0
2021-02-02 00:00:00+05:30,1000000.0
2021-02-03 00:00:00+05:30,1000000.0
2021-02-04 00:00:00+05:30,1000000.0
2021-02-05 00:00:00+05:30,1000000.0
2021-02-08 00:00:00+05:30,1000000.0
2021-02-09 00:00:00+05:30,1000000.0
2021-02-10 00:00:00+05:30,1000000.0
2021-02-11 00:00:00+05:30,1000000.0
2021-02-12 00:00:00+05:30,1000000.0
2021-02-15 00:00:00+05:30,1000000.0
2021-02-16 00:00:00+05:30,1000000.0
2021-02-17 00:00:00+05:30,1000000.0
2021-02-18 00:00:00+05:30,1000000.0
2021-02-19 00:00:00+05:30,1000000.0
2021-02-22 00:00:00+05:30,1000000.0
2021-02-23 00:00:00+05:30,1000000.0
2021-02-24 00:00:00+05:30,1000000.0
2021-02-25 00:00:00+05:30,1000000.0
2021-02-26 00:00:00+05:30,1000000.0
2021-03-01 00:00:00+05:30,1000000.0
2021-03-02 00:00:00+05:30,1000000.0
2021-03-03 00:00:00+05:30,1000000.0
2021-03-04 00:00:00+05:30,1000000.0
2021-03-05 00:00:00+05:30,1000000.0
2021-03-08 00:00:00+05:30,1000000.0
2021-03-09 00:00:00+05:30,1000000.0
2021-03-10 00:00:00+05:30,1000000.0
2021-03-12 00:00:00+05:30,1000000.0
2021-03-15 00:00:00+05:30,1000000.0
2021-03-16 00:00:00+05:30,1000000.0
2021-03-17 00:00:00+05:30,1000000.0
2021-03-18 00:00:00+05:30,1000000.0
2021-03-19 00:00:00+05:30,1000000.0
2021-03-22 00:00:00+05:30,1000000.0
2021-03-23 00:00:00+05:30,1000000.0
2021-03-24 00:00:00+05:30,1000000.0
2021-03-25 00:00:00+05:30,1000000.0
2021-03-26 00:00:00+05:30,1000000.0
2021-03-30 00:00:00+05:30,1000000.0
2021-03-31 00:00:00+05:30,1000000.0
2021-04-01 00:00:00+05:30,1000000.0
2021-04-05 00:00:00+05:30,1000000.0
2021-04-06 00:00:00+05:30,1000000.0
2021-04-07 00:00:00+05:30,1000000.0
2021-04-08 00:00:00+05:30,1000000.0
2021-04-09 00:00:00+05:30,1000000.0
2021-04-12 00:00:00+05:30,1000000.0
2021-04-13 00:00:00+05:30,1000000.0
2021-04-15 00:00:00+05:30,1000000.0
2021-04-16 00:00:00+05:30,1000000.0
2021-04-19 00:00:00+05:30,1000000.0
2021-04-20 00:00:00+05:30,1000000.0
2021-04-22 00:00:00+05:30,1000000.0
2021-04-23 00:00:00+05:30,1000000.0
2021-04-26 00:00:00+05:30,1000000.0
2021-04-27 00:00:00+05:30,1000000.0
2021-04-28 00:00:00+05:30,1000000.0
2021-04-29 00:00:00+05:30,1000000.0
2021-04-30 00:00:00+05:30,1000000.0
2021-05-03 00:00:00+05:30,1000000.0
2021-05-04 00:00:00+05:30,1000000.0
2021-05-05 00:00:00+05:30,1000000.0
2021-05-06 00:00:00+05:30,1000000.0
2021-05-07 00:00:00+05:30,1000000.0
2021-05-10 00:00:00+05:30,1000000.0
2021-05-11 00:00:00+05:30,1000000.0
2021-05-12 00:00:00+05:30,1000000.0
2021-05-14 00:00:00+05:30,1000000.0
2021-05-17 00:00:00+05:30,1000000.0
2021-05-18 00:00:00+05:30,1000000.0
2021-05-19 00:00:00+05:30,1000000.0
2021-05-20 00:00:00+05:30,1000000.0
2021-05-21 00:00:00+05:30,1000000.0
2021-05-24 00:00:00+05:30,1000000.0
2021-05-25 00:00:00+05:30,1000000.0
2021-05-26 00:00:00+05:30,1000000.0
2021-05-27 00:00:00+05:30,1000000.0
2021-05-28 00:00:00+05:30,1000000.0
2021-05-31 00:00:00+05:30,1000000.0
2021-06-01 00:00:00+05:30,1000000.0
2021-06-02 00:00:00+05:30,1000000.0
2021-06-03 00:00:00+05:30,1000000.0
2021-06-04 00:00:00+05:30,1000000.0
2021-06-07 00:00:00+05:30,1000000.0
2021-06-08 00:00:00+05:30,1000000.0
2021-06-09 00:00:00+05:30,1000000.0
2021-06-10 00:00:00+05:30,1000000.0
2021-06-11 00:00:00+05:30,1000000.0
2021-06-14 00:00:00+05:30,1000000.0
2021-06-15 00:00:00+05:30,1000000.0
2021-06-16 00:00:00+05:30,1000000.0
2021-06-17 00:00:00+05:30,1000000.0
2021-06-18 00:00:00+05:30,1000000.0
2021-06-21 00:00:00+05:30,1000000.0
2021-06-22 00:00:00+05:30,1000000.0
2021-06-23 00:00:00+05:30,1000000.0
2021-06-24 00:00:00+05:30,1000000.0
2021-06-25 00:00:00+05:30,1000000.0
2021-06-28 00:00:00+05:30,1000000.0
2021-06-29 00:00:00+05:30,1000000.0
2021-06-30 00:00:00+05:30,1000000.0
2021-07-01 00:00:00+05:30,1000000.0
2021-07-02 00:00:00+05:30,1000000.0
2021-07-05 00:00:00+05:30,1000000.0
2021-07-06 00:00:00+05:30,1000000.0
2021-07-07 00:00:00+05:30,1000000.0
2021-07-08 00:00:00+05:30,1000000.0
2021-07-09 00:00:00+05:30,1000000.0
2021-07-12 00:00:00+05:30,1000000.0
2021-07-13 00:00:00+05:30,1000000.0
2021-07-14 00:00:00+05:30,1000000.0
2021-07-15 00:00:00+05:30,1000000.0
2021-07-16 00:00:00+05:30,1000000.0
2021-07-19 00:00:00+05:30,1000000.0
2021-07-20 00:00:00+05:30,1000000.0
2021-07-22 00:00:00+05:30,1000000.0
2021-07-23 00:00:00+05:30,1000000.0
2021-07-26 00:00:00+05:30,1000000.0
2021-07-27 00:00:00+05:30,1000000.0
2021-07-28 00:00:00+05:30,1000000.0
2021-07-29 00:00:00+05:30,1000000.0
2021-07-30 00:00:00+05:30,1000000.0
2021-08-02 00:00:00+05:30,1000000.0
2021-08-03 00:00:00+05:30,1000000.0
2021-08-04 00:00:00+05:30,1000000.0
2021-08-05 00:00:00+05:30,1000000.0
2021-08-06 00:00:00+05:30,1000000.0
2021-08-09 00:00:00+05:30,1000000.0
2021-08-10 00:00:00+05:30,1000000.0
2021-08-11 00:00:00+05:30,1000000.0
2021-08-12 00:00:00+05:30,1000000.0
2021-08-13 00:00:00+05:30,1000000.0
2021-08-16 00:00:00+05:30,1000000.0
2021-08-17 00:00:00+05:30,1000000.0
2021-08-18 00:00:00+05:30,1000000.0
2021-08-20 00:00:00+05:30,1000000.0
2021-08-23 00:00:00+05:30,1000000.0
2021-08-24 00:00:00+05:30,1000000.0
2021-08-25 00:00:00+05:30,1000000.0
2021-08-26 00:00:00+05:30,1000000.0
2021-08-27 00:00:00+05:30,1000000.0
2021-08-30 00:00:00+05:30,1000000.0
2021-08-31 00:00:00+05:30,1000000.0
2021-09-01 00:00:00+05:30,1000000.0
2021-09-02 00:00:00+05:30,1000000.0
2021-09-03 00:00:00+05:30,1000000.0
2021-09-06 00:00:00+05:30,1000000.0
2021-09-07 00:00:00+05:30,1000000.0
2021-09-08 00:00:00+05:30,1000000.0
2021-09-09 00:00:00+05:30,1000000.0
2021-09-13 00:00:00+05:30,1000000.0
2021-09-14 00:00:00+05:30,1000000.0
2021-09-15 00:00:00+05:30,1000000.0
2021-09-16 00:00:00+05:30,1000000.0
2021-09-17 00:00:00+05:30,1000000.0
2021-09-20 00:00:00+05:30,1000000.0
2021-09-21 00:00:00+05:30,1000000.0
2021-09-22 00:00:00+05:30,1000000.0
2021-09-23 00:00:00+05:30,1000000.0
2021-09-24 00:00:00+05:30,1000000.0
2021-09-27 00:00:00+05:30,1000000.0
2021-09-28 00:00:00+05:30,1000000.0
2021-09-29 00:00:00+05:30,1000000.0
2021-09-30 00:00:00+05:30,1000000.0
2021-10-01 00:00:00+05:30,1000000.0
2021-10-04 00:00:00+05:30,1000000.0
2021-10-05 00:00:00+05:30,1000000.0
2021-10-06 00:00:00+05:30,1000000.0
2021-10-07 00:00:00+05:30,1000000.0
2021-10-08 00:00:00+05:30,1000000.0
2021-10-11 00:00:00+05:30,1000000.0
2021-10-12 00:00:00+05:30,1000000.0
2021-10-13 00:00:00+05:30,1000000.0
2021-10-14 00:00:00+05:30,1000000.0
2021-10-18 00:00:00+05:30,1000000.0
2021-10-19 00:00:00+05:30,1000000.0
2021-10-20 00:00:00+05:30,1000000.0
2021-10-21 00:00:00+05:30,1000000.0
2021-10-22 00:00:00+05:30,1000000.0
2021-10-25 00:00:00+05:30,1000000.0
2021-10-26 00:00:00+05:30,1000000.0
2021-10-27 00:00:00+05:30,1000000.0
2021-10-28 00:00:00+05:30,1000000.0
2021-10-29 00:00:00+05:30,1000000.0
2021-11-01 00:00:00+05:30,1000000.0
2021-11-02 00:00:00+05:30,1000000.0
2021-11-03 00:00:00+05:30,1000000.0
2021-11-04 00:00:00+05:30,1000000.0
2021-11-08 00:00:00+05:30,1000000.0
2021-11-09 00:00:00+05:30,1000000.0
2021-11-10 00:00:00+05:30,1000000.0
2021-11-11 00:00:00+05:30,1000000.0
2021-11-12 00:00:00+05:30,1000000.0
2021-11-15 00:00:00+05:30,1000000.0
2021-11-16 00:00:00+05:30,1000000.0
2021-11-17 00:00:00+05:30,1000000.0
2021-11-18 00:00:00+05:30,1000000.0
2021-11-22 00:00:00+05:30,1000000.0
2021-11-23 00:00:00+05:30,1000000.0
2021-11-24 00:00:00+05:30,1000000.0
2021-11-25 00:00:00+05:30,1000000.0
2021-11-26 00:00:00+05:30,1000000.0
2021-11-29 00:00:00+05:30,1000000.0
2021-11-30 00:00:00+05:30,1000000.0
2021-12-01 00:00:00+05:30,1000000.0
2021-12-02 00:00:00+05:30,1000000.0
2021-12-03 00:00:00+05:30,1000000.0
2021-12-06 00:00:00+05:30,1000000.0
2021-12-07 00:00:00+05:30,1000000.0
2021-12-08 00:00:00+05:30,1000000.0
2021-12-09 00:00:00+05:30,1000000.0
2021-12-10 00:00:00+05:30,1000000.0
2021-12-13 00:00:00+05:30,1000000.0
2021-12-14 00:00:00+05:30,1000000.0
2021-12-15 00:00:00+05:30,1000000.0
2021-12-16 00:00:00+05:30,1000000.0
2021-12-17 00:00:00+05:30,1000000.0
2021-12-20 00:00:00+05:30,1000000.0
2021-12-21 00:00:00+05:30,1000000.0
2021-12-22 00:00:00+05:30,1000000.0
2021-12-23 00:00:00+05:30,1000000.0
2021-12-24 00:00:00+05:30,1000000.0
2021-12-27 00:00:00+05:30,1000000.0
2021-12-28 00:00:00+05:30,1000000.0
2021-12-29 00:00:00+05:30,1000000.0
2021-12-30 00:00:00+05:30,1000000.0
2021-12-31 00:00:00+05:30,1000000.0
2022-01-03 00:00:00+05:30,1000000.0
2022-01-04 00:00:00+05:30,1000000.0
2022-01-05 00:00:00+05:30,1000000.0
2022-01-06 00:00:00+05:30,1000000.0
2022-01-07 00:00:00+05:30,1000000.0
2022-01-10 00:00:00+05:30,1002030.4500000001
2022-01-11 00:00:00+05:30,1012123.2000000001
2022-01-12 00:00:00+05:30,1010406.0
2022-01-13 00:00:00+05:30,1018945.5500000002
2022-01-14 00:00:00+05:30,1019946.65
2022-01-17 00:00:00+05:30,1033690.0
2022-01-18 00:00:00+05:30,1011028.3500000001
2022-01-19 00:00:00+05:30,1014950.95
2022-01-20 00:00:00+05:30,1027354.0500000002
2022-01-21 00:00:00+05:30,1017445.2999999999
2022-01-24 00:00:00+05:30,1004502.3500000001
2022-01-25 00:00:00+05:30,1035566.25
2022-01-27 00:00:00+05:30,1056814.75
2022-01-28 00:00:00+05:30,1068151.45
2022-01-31 00:00:00+05:30,1070922.95
2022-02-01 00:00:00+05:30,1081507.5
2022-02-02 00:00:00+05:30,1100027.35
2022-02-03 00:00:00+05:30,1121882.4500000002
2022-02-04 00:00:00+05:30,1126135.55
2022-02-07 00:00:00+05:30,1117764.3
2022-02-08 00:00:00+05:30,1086044.5499999998
2022-02-09 00:00:00+05:30,1091040.45
2022-02-10 00:00:00+05:30,1084138.45
2022-02-11 00:00:00+05:30,1065225.0
2022-02-14 00:00:00+05:30,1038669.25
2022-02-15 00:00:00+05:30,1047079.6
2022-02-16 00:00:00+05:30,1045903.7
2022-02-17 00:00:00+05:30,1042338.2000000001
2022-02-18 00:00:00+05:30,1042100.6
2022-02-21 00:00:00+05:30,1036475.45
2022-02-22 00:00:00+05:30,1033027.35
2022-02-23 00:00:00+05:30,1032567.45
2022-02-24 00:00:00+05:30,1030271.1
2022-02-25 00:00:00+05:30,1032535.95
2022-02-28 00:00:00+05:30,1032986.3999999999
2022-03-02 00:00:00+05:30,1032261.8999999999
2022-03-03 00:00:00+05:30,1032038.2499999999
2022-03-04 00:00:00+05:30,1030942.0499999999
2022-03-07 00:00:00+05:30,1027716.45
2022-03-08 00:00:00+05:30,1028236.2
2022-03-09 00:00:00+05:30,1029808.0499999999
2022-03-10 00:00:00+05:30,1031694.8999999999
2022-03-11 00:00:00+05:30,1031757.8999999999
2022-03-14 00:00:00+05:30,1032249.2999999999
2022-03-15 00:00:00+05:30,1032661.95
2022-03-16 00:00:00+05:30,1032661.95
2022-03-17 00:00:00+05:30,1032661.95
2022-03-21 00:00:00+05:30,1032661.95
2022-03-22 00:00:00+05:30,1036164.8499999999
2022-03-23 00:00:00+05:30,1032724.5499999999
2022-03-24 00:00:00+05:30,1032072.0499999999
2022-03-25 00:00:00+05:30,1045963.7999999999
2022-03-28 00:00:00+05:30,1044800.2
2022-03-29 00:00:00+05:30,1057677.5
2022-03-30 00:00:00+05:30,1053069.0
2022-03-31 00:00:00+05:30,1041911.4499999998
2022-04-01 00:00:00+05:30,1054277.15
2022-04-04 00:00:00+05:30,1070619.0
2022-04-05 00:00:00+05:30,1110732.6499999997
2022-04-06 00:00:00+05:30,1138482.0499999998
2022-04-07 00:00:00+05:30,1127819.3499999999
2022-04-08 00:00:00+05:30,1136501.0999999999
2022-04-11 00:00:00+05:30,1151733.0499999998
2022-04-12 00:00:00+05:30,1144920.9499999997
2022-04-13 00:00:00+05:30,1150616.8999999997
2022-04-18 00:00:00+05:30,1172507.25
2022-04-19 00:00:00+05:30,1159458.0499999998
2022-04-20 00:00:00+05:30,1187884.0999999996
2022-04-21 00:00:00+05:30,1205351.5499999998
2022-04-22 00:00:00+05:30,1202689.9499999997
2022-04-25 00:00:00+05:30,1182702.9499999997
2022-04-26 00:00:00+05:30,1197276.0999999996
2022-04-27 00:00:00+05:30,1200450.8499999996
2022-04-28 00:00:00+05:30,1215349.9999999998
2022-04-29 00:00:00+05:30,1223615.8499999999
2022-05-02 00:00:00+05:30,1241883.1999999997
2022-05-04 00:00:00+05:30,1224475.5999999996
2022-05-05 00:00:00+05:30,1218320.0499999998
2022-05-06 00:00:00+05:30,1209165.0499999998
2022-05-09 00:00:00+05:30,1204225.6499999997
2022-05-10 00:00:00+05:30,1202937.1499999997
2022-05-11 00:00:00+05:30,1202319.0499999996
2022-05-12 00:00:00+05:30,1201852.1499999997
2022-05-13 00:00:00+05:30,1203361.3499999996
2022-05-16 00:00:00+05:30,1209018.7499999995
2022-05-17 00:00:00+05:30,1209018.7499999995
2022-05-18 00:00:00+05:30,1209018.7499999995
2022-05-19 00:00:00+05:30,1209018.7499999995
2022-05-20 00:00:00+05:30,1209018.7499999995
2022-05-23 00:00:00+05:30,1209018.7499999995
2022-05-24 00:00:00+05:30,1209018.7499999995
2022-05-25 00:00:00+05:30,1209018.7499999995
2022-05-26 00:00:00+05:30,1209018.7499999995
2022-05-27 00:00:00+05:30,1209018.7499999995
2022-05-30 00:00:00+05:30,1209018.7499999995
2022-05-31 00:00:00+05:30,1209018.7499999995
2022-06-01 00:00:00+05:30,1209018.7499999995
2022-06-02 00:00:00+05:30,1209018.7499999995
2022-06-03 00:00:00+05:30,1209018.7499999995
2022-06-06 00:00:00+05:30,1209018.7499999995
2022-06-07 00:00:00+05:30,1209018.7499999995
2022-06-08 00:00:00+05:30,1209018.7499999995
2022-06-09 00:00:00+05:30,1209018.7499999995
2022-06-10 00:00:00+05:30,1209018.7499999995
2022-06-13 00:00:00+05:30,1209018.7499999995
2022-06-14 00:00:00+05:30,1209018.7499999995
2022-06-15 00:00:00+05:30,1209018.7499999995
2022-06-16 00:00:00+05:30,1209018.7499999995
2022-06-17 00:00:00+05:30,1209018.7499999995
2022-06-20 00:00:00+05:30,1209018.7499999995
2022-06-21 00:00:00+05:30,1209018.7499999995
2022-06-22 00:00:00+05:30,1209018.7499999995
2022-06-23 00:00:00+05:30,1209018.7499999995
2022-06-24 00:00:00+05:30,1209018.7499999995
2022-06-27 00:00:00+05:30,1209018.7499999995
2022-06-28 00:00:00+05:30,1209018.7499999995
2022-06-29 00:00:00+05:30,1209018.7499999995
2022-06-30 00:00:00+05:30,1209018.7499999995
2022-07-01 00:00:00+05:30,1209018.7499999995
2022-07-04 00:00:00+05:30,1209018.7499999995
2022-07-05 00:00:00+05:30,1209018.7499999995
2022-07-06 00:00:00+05:30,1209018.7499999995
2022-07-07 00:00:00+05:30,1209018.7499999995
2022-07-08 00:00:00+05:30,1209018.7499999995
2022-07-11 00:00:00+05:30,1209018.7499999995
2022-07-12 00:00:00+05:30,1202324.5999999996
2022-07-13 00:00:00+05:30,1202206.2499999995
2022-07-14 00:00:00+05:30,1201101.8499999996
2022-07-15 00:00:00+05:30,1200457.6999999995
2022-07-18 00:00:00+05:30,1202795.4499999995
2022-07-19 00:00:00+05:30,1217258.8499999996
2022-07-20 00:00:00+05:30,1211605.8499999996
2022-07-21 00:00:00+05:30,1222079.5499999996
2022-07-22 00:00:00+05:30,1213758.4499999995
2022-07-25 00:00:00+05:30,1213288.1999999995
2022-07-26 00:00:00+05:30,1203613.7499999995
2022-07-27 00:00:00+05:30,1202188.4999999995
2022-07-28 00:00:00+05:30,1201066.2499999995
2022-07-29 00:00:00+05:30,1200998.1499999994
2022-08-01 00:00:00+05:30,1210872.6499999994
2022-08-02 00:00:00+05:30,1228144.3499999994
2022-08-03 00:00:00+05:30,1214467.6499999994
2022-08-04 00:00:00+05:30,1224737.4999999995
2022-08-05 00:00:00+05:30,1239746.8999999994
2022-08-08 00:00:00+05:30,1246085.9999999995
2022-08-10 00:00:00+05:30,1249315.9499999995
2022-08-11 00:00:00+05:30,1245347.3999999994
2022-08-12 00:00:00+05:30,1246409.7499999995
2022-08-16 00:00:00+05:30,1261027.9999999995
2022-08-17 00:00:00+05:30,1260009.3499999996
2022-08-18 00:00:00+05:30,1258599.6999999995
2022-08-19 00:00:00+05:30,1248956.9999999995
2022-08-22 00:00:00+05:30,1238711.1999999995
2022-08-23 00:00:00+05:30,1250297.8499999996
2022-08-24 00:00:00+05:30,1252370.1999999997
2022-08-25 00:00:00+05:30,1255662.4999999995
2022-08-26 00:00:00+05:30,1261110.0999999996
2022-08-29 00:00:00+05:30,1256756.7499999995
2022-08-30 00:00:00+05:30,1269124.1499999994
2022-09-01 00:00:00+05:30,1291562.7499999995
2022-09-02 00:00:00+05:30,1291059.6999999993
2022-09-05 00:00:00+05:30,1312344.8999999994
2022-09-06 00:00:00+05:30,1306968.1499999994
2022-09-07 00:00:00+05:30,1310754.4499999997
2022-09-08 00:00:00+05:30,1299961.9999999995
2022-09-09 00:00:00+05:30,1290271.4499999997
2022-09-12 00:00:00+05:30,1308337.0799999996
2022-09-13 00:00:00+05:30,1327455.6999999995
2022-09-14 00:00:00+05:30,1322315.8499999994
2022-09-15 00:00:00+05:30,1306631.7199999993
2022-09-16 00:00:00+05:30,1296435.4399999995
2022-09-19 00:00:00+05:30,1292428.3599999994
2022-09-20 00:00:00+05:30,1293173.1799999992
2022-09-21 00:00:00+05:30,1284459.4199999995
2022-09-22 00:00:00+05:30,1290350.3899999992
2022-09-23 00:00:00+05:30,1285188.4499999993
2022-09-26 00:00:00+05:30,1261591.2499999995
2022-09-27 00:00:00+05:30,1268084.0199999996
2022-09-28 00:00:00+05:30,1269327.1099999994
2022-09-29 00:00:00+05:30,1277974.3099999996
2022-09-30 00:00:00+05:30,1274724.1799999995
2022-10-03 00:00:00+05:30,1270745.8099999996
2022-10-04 00:00:00+05:30,1273135.3099999996
2022-10-06 00:00:00+05:30,1274579.6299999997
2022-10-07 00:00:00+05:30,1273220.2699999996
2022-10-10 00:00:00+05:30,1271128.1299999997
2022-10-11 00:00:00+05:30,1269864.3499999996
2022-10-12 00:00:00+05:30,1270236.0499999996
2022-10-13 00:00:00+05:30,1268972.2699999996
2022-10-14 00:00:00+05:30,1267389.8899999997
2022-10-17 00:00:00+05:30,1268462.5099999995
2022-10-18 00:00:00+05:30,1272089.7999999996
2022-10-19 00:00:00+05:30,1278740.2999999996
2022-10-20 00:00:00+05:30,1286475.8599999994
2022-10-21 00:00:00+05:30,1284387.4899999995
2022-10-24 00:00:00+05:30,1283701.4899999995
2022-10-25 00:00:00+05:30,1281663.0899999994
2022-10-27 00:00:00+05:30,1288456.9399999995
2022-10-28 00:00:00+05:30,1284742.7399999995
2022-10-31 00:00:00+05:30,1281788.0399999996
2022-11-01 00:00:00+05:30,1282780.2899999996
2022-11-02 00:00:00+05:30,1278762.2899999996
2022-11-03 00:00:00+05:30,1279994.6399999994
2022-11-04 00:00:00+05:30,1279161.6399999994
2022-11-07 00:00:00+05:30,1281704.7399999995
2022-11-09 00:00:00+05:30,1278127.4899999995
2022-11-10 00:00:00+05:30,1269717.9899999995
2022-11-11 00:00:00+05:30,1267848.6399999994
2022-11-14 00:00:00+05:30,1269268.7399999995
2022-11-15 00:00:00+05:30,1274391.6399999994
2022-11-16 00:00:00+05:30,1303028.4499999995
2022-11-17 00:00:00+05:30,1312694.6499999994
2022-11-18 00:00:00+05:30,1302602.7399999995
2022-11-21 00:00:00+05:30,1300098.2799999996
2022-11-22 00:00:00+05:30,1315384.9799999995
2022-11-23 00:00:00+05:30,1328998.3999999994
2022-11-24 00:00:00+05:30,1333751.5499999993
2022-11-25 00:00:00+05:30,1342363.8899999997
2022-11-28 00:00:00+05:30,1343287.9799999995
2022-11-29 00:00:00+05:30,1345894.5499999996
2022-11-30 00:00:00+05:30,1368594.1399999997
2022-12-01 00:00:00+05:30,1370547.1399999997
2022-12-02 00:00:00+05:30,1366897.2799999996
2022-12-05 00:00:00+05:30,1365627.2399999995
2022-12-06 00:00:00+05:30,1361335.4999999995
2022-12-07 00:00:00+05:30,1364279.5799999996
2022-12-08 00:00:00+05:30,1369420.3899999997
2022-12-09 00:00:00+05:30,1346615.6499999997
2022-12-12 00:00:00+05:30,1362891.9299999997
2022-12-13 00:00:00+05:30,1398133.3899999997
2022-12-14 00:00:00+05:30,1399546.6399999997
2022-12-15 00:00:00+05:30,1399444.1299999997
2022-12-16 00:00:00+05:30,1378758.9299999997
2022-12-19 00:00:00+05:30,1411679.1899999995
2022-12-20 00:00:00+05:30,1406578.0299999996
2022-12-21 00:00:00+05:30,1381752.4299999995
2022-12-22 00:00:00+05:30,1375293.2899999996
2022-12-23 00:00:00+05:30,1349263.1599999997
2022-12-26 00:00:00+05:30,1362353.3399999994
2022-12-27 00:00:00+05:30,1370971.5799999996
2022-12-28 00:00:00+05:30,1373340.6999999995
2022-12-29 00:00:00+05:30,1372104.5799999996
2022-12-30 00:00:00+05:30,1377364.9399999995
2023-01-02 00:00:00+05:30,1388649.9399999995
2023-01-03 00:00:00+05:30,1385899.3199999994
2023-01-04 00:00:00+05:30,1389043.2399999993
2023-01-05 00:00:00+05:30,1389720.9199999995
2023-01-06 00:00:00+05:30,1390153.5399999996
2023-01-09 00:00:00+05:30,1388545.3399999994
2023-01-10 00:00:00+05:30,1386861.4599999995
2023-01-11 00:00:00+05:30,1386587.1199999994
2023-01-12 00:00:00+05:30,1385338.3999999994
2023-01-13 00:00:00+05:30,1385026.2199999995
2023-01-16 00:00:00+05:30,1384316.7199999995
2023-01-17 00:00:00+05:30,1384316.7199999995
2023-01-18 00:00:00+05:30,1384316.7199999995
2023-01-19 00:00:00+05:30,1384316.7199999995
2023-01-20 00:00:00+05:30,1384316.7199999995
2023-01-23 00:00:00+05:30,1384316.7199999995
2023-01-24 00:00:00+05:30,1384316.7199999995
2023-01-25 00:00:00+05:30,1384316.7199999995
2023-01-27 00:00:00+05:30,1384316.7199999995
2023-01-30 00:00:00+05:30,1384316.7199999995
2023-01-31 00:00:00+05:30,1384316.7199999995
2023-02-01 00:00:00+05:30,1384316.7199999995
2023-02-02 00:00:00+05:30,1384316.7199999995
2023-02-03 00:00:00+05:30,1384316.7199999995
2023-02-06 00:00:00+05:30,1384316.7199999995
2023-02-07 00:00:00+05:30,1384316.7199999995
2023-02-08 00:00:00+05:30,1384316.7199999995
2023-02-09 00:00:00+05:30,1384316.7199999995
2023-02-10 00:00:00+05:30,1384316.7199999995
2023-02-13 00:00:00+05:30,1384316.7199999995
2023-02-14 00:00:00+05:30,1384316.7199999995
2023-02-15 00:00:00+05:30,1384316.7199999995
2023-02-16 00:00:00+05:30,1385576.7199999995
2023-02-17 00:00:00+05:30,1378770.1199999996
2023-02-20 00:00:00+05:30,1375655.7199999995
2023-02-21 00:00:00+05:30,1379410.9199999995
2023-02-22 00:00:00+05:30,1377835.5199999996
2023-02-23 00:00:00+05:30,1379635.5199999996
2023-02-24 00:00:00+05:30,1385306.1199999996
2023-02-27 00:00:00+05:30,1380659.7199999995
2023-02-28 00:00:00+05:30,1376913.9199999995
2023-03-01 00:00:00+05:30,1393059.9199999995
2023-03-02 00:00:00+05:30,1408567.5199999996
2023-03-03 00:00:00+05:30,1401650.7199999995
2023-03-06 00:00:00+05:30,1409554.7199999995
2023-03-08 00:00:00+05:30,1410835.1199999996
2023-03-09 00:00:00+05:30,1406057.7199999995
2023-03-10 00:00:00+05:30,1417448.9199999995
2023-03-13 00:00:00+05:30,1408451.9199999995
2023-03-14 00:00:00+05:30,1392516.3199999996
2023-03-15 00:00:00+05:30,1391689.3199999996
2023-03-16 00:00:00+05:30,1387980.3199999996
2023-03-17 00:00:00+05:30,1387822.9199999995
2023-03-20 00:00:00+05:30,1388784.5199999996
2023-03-21 00:00:00+05:30,1382029.5199999996
2023-03-22 00:00:00+05:30,1390254.5199999996
2023-03-23 00:00:00+05:30,1386719.5199999996
2023-03-24 00:00:00+05:30,1387734.5199999996
2023-03-27 00:00:00+05:30,1385879.5199999996
2023-03-28 00:00:00+05:30,1383919.5199999996
2023-03-29 00:00:00+05:30,1365334.5199999996
2023-03-31 00:00:00+05:30,1365334.5199999996
2023-04-03 00:00:00+05:30,1365334.5199999996
2023-04-05 00:00:00+05:30,1365334.5199999996
2023-04-06 00:00:00+05:30,1365334.5199999996
2023-04-10 00:00:00+05:30,1365334.5199999996
2023-04-11 00:00:00+05:30,1363366.5199999996
2023-04-12 00:00:00+05:30,1367302.5199999996
2023-04-13 00:00:00+05:30,1374190.5199999996
2023-04-17 00:00:00+05:30,1370844.9199999997
2023-04-18 00:00:00+05:30,1373998.3199999994
2023-04-19 00:00:00+05:30,1376809.7199999995
2023-04-20 00:00:00+05:30,1367328.4199999995
2023-04-21 00:00:00+05:30,1358669.6699999995
2023-04-24 00:00:00+05:30,1358251.0699999994
2023-04-25 00:00:00+05:30,1361454.3199999994
2023-04-26 00:00:00+05:30,1368882.3699999994
2023-04-27 00:00:00+05:30,1385769.8699999994
2023-04-28 00:00:00+05:30,1389067.4199999995
2023-05-02 00:00:00+05:30,1384056.6199999994
2023-05-03 00:00:00+05:30,1390601.9299999995
2023-05-04 00:00:00+05:30,1387439.2099999995
2023-05-05 00:00:00+05:30,1380181.0999999996
2023-05-08 00:00:00+05:30,1400037.8899999994
2023-05-09 00:00:00+05:30,1385949.5199999996
2023-05-10 00:00:00+05:30,1398841.2899999993
2023-05-11 00:00:00+05:30,1399365.5699999994
2023-05-12 00:00:00+05:30,1390145.6999999995
2023-05-15 00:00:00+05:30,1416410.5999999994
2023-05-16 00:00:00+05:30,1416781.5799999994
2023-05-17 00:00:00+05:30,1404715.6099999994
2023-05-18 00:00:00+05:30,1395102.4399999997
2023-05-19 00:00:00+05:30,1411926.6499999994
2023-05-22 00:00:00+05:30,1417189.9799999995
2023-05-23 00:00:00+05:30,1410400.1799999995
2023-05-24 00:00:00+05:30,1408033.7399999995
2023-05-25 00:00:00+05:30,1424794.3499999996
2023-05-26 00:00:00+05:30,1418764.8099999994
2023-05-29 00:00:00+05:30,1419475.3899999997
2023-05-30 00:00:00+05:30,1421141.4799999995
2023-05-31 00:00:00+05:30,1422799.7499999995
2023-06-01 00:00:00+05:30,1423216.7599999995
2023-06-02 00:00:00+05:30,1422208.2799999996
2023-06-05 00:00:00+05:30,1425539.3899999997
2023-06-06 00:00:00+05:30,1427851.4299999997
2023-06-07 00:00:00+05:30,1435944.4699999997
2023-06-08 00:00:00+05:30,1433451.0899999994
2023-06-09 00:00:00+05:30,1430933.9899999998
2023-06-12 00:00:00+05:30,1438570.6699999995
2023-06-13 00:00:00+05:30,1448029.8499999996
2023-06-14 00:00:00+05:30,1445797.2499999995
2023-06-15 00:00:00+05:30,1444219.2499999995
2023-06-16 00:00:00+05:30,1446695.3999999994
2023-06-19 00:00:00+05:30,1441874.2499999995
2023-06-20 00:00:00+05:30,1444795.8999999997
2023-06-21 00:00:00+05:30,1442324.3499999996
2023-06-22 00:00:00+05:30,1432881.9999999995
2023-06-23 00:00:00+05:30,1421009.1499999994
2023-06-26 00:00:00+05:30,1423053.0999999996
2023-06-27 00:00:00+05:30,1427527.2999999996
2023-06-28 00:00:00+05:30,1444225.8999999994
2023-06-30 00:00:00+05:30,1452253.6999999995
2023-07-03 00:00:00+05:30,1459198.2999999996
2023-07-04 00:00:00+05:30,1454503.5999999996
2023-07-05 00:00:00+05:30,1463414.4499999995
2023-07-06 00:00:00+05:30,1466898.1499999994
2023-07-07 00:00:00+05:30,1468627.3999999997
2023-07-10 00:00:00+05:30,1483207.7499999995
2023-07-11 00:00:00+05:30,1490285.8499999996
2023-07-12 00:00:00+05:30,1495432.5999999996
2023-07-13 00:00:00+05:30,1497660.6999999997
2023-07-14 00:00:00+05:30,1518937.4499999995
2023-07-17 00:00:00+05:30,1531111.0999999996
2023-07-18 00:00:00+05:30,1519376.6499999997
2023-07-19 00:00:00+05:30,1524618.8499999996
2023-07-20 00:00:00+05:30,1534967.0499999998
2023-07-21 00:00:00+05:30,1536893.7999999993
2023-07-24 00:00:00+05:30,1529473.1999999997
2023-07-25 00:00:00+05:30,1535614.4999999995
2023-07-26 00:00:00+05:30,1542467.7999999998
2023-07-27 00:00:00+05:30,1547435.1499999997
2023-07-28 00:00:00+05:30,1549446.5999999996
2023-07-31 00:00:00+05:30,1561336.0499999996
2023-08-01 00:00:00+05:30,1558673.7999999998
2023-08-02 00:00:00+05:30,1545029.5999999996
2023-08-03 00:00:00+05:30,1548517.5499999996
2023-08-04 00:00:00+05:30,1552918.8999999997
2023-08-07 00:00:00+05:30,1557007.2499999995
2023-08-08 00:00:00+05:30,1559981.8499999996
2023-08-09 00:00:00+05:30,1568066.8999999994
2023-08-10 00:00:00+05:30,1572015.7999999998
2023-08-11 00:00:00+05:30,1565235.5999999996
2023-08-14 00:00:00+05:30,1563101.4999999995
2023-08-16 00:00:00+05:30,1577088.9
2023-08-17 00:00:00+05:30,1577856.4999999995
2023-08-18 00:00:00+05:30,1576482.2999999996
2023-08-21 00:00:00+05:30,1584525.3499999996
2023-08-22 00:00:00+05:30,1592770.15
2023-08-23 00:00:00+05:30,1594497.8499999996
2023-08-24 00:00:00+05:30,1605134.1499999994
2023-08-25 00:00:00+05:30,1594524.1999999997
2023-08-28 00:00:00+05:30,1606080.4999999995
2023-08-29 00:00:00+05:30,1603210.7999999998
2023-08-30 00:00:00+05:30,1601520.5999999996
2023-08-31 00:00:00+05:30,1608947.8999999994
2023-09-01 00:00:00+05:30,1619929.2499999998
2023-09-04 00:00:00+05:30,1634313.9499999997
2023-09-05 00:00:00+05:30,1643007.5499999998
2023-09-06 00:00:00+05:30,1658182.9
2023-09-07 00:00:00+05:30,1662453.7499999995
2023-09-08 00:00:00+05:30,1656025.8499999996
2023-09-11 00:00:00+05:30,1650579.65
2023-09-12 00:00:00+05:30,1591855.9299999997
2023-09-13 00:00:00+05:30,1613664.2999999998
2023-09-14 00:00:00+05:30,1643164.9299999995
2023-09-15 00:00:00+05:30,1639588.0299999996
2023-09-18 00:00:00+05:30,1630218.4899999998
2023-09-20 00:00:00+05:30,1617698.5599999996
2023-09-21 00:00:00+05:30,1607012.2599999998
2023-09-22 00:00:00+05:30,1606612.2599999998
2023-09-25 00:00:00+05:30,1610972.6099999996
2023-09-26 00:00:00+05:30,1608119.0099999995
2023-09-27 00:00:00+05:30,1612412.5099999998
2023-09-28 00:00:00+05:30,1607030.5599999996
2023-09-29 00:00:00+05:30,1611409.6099999996
2023-10-03 00:00:00+05:30,1604387.3099999996
2023-10-04 00:00:00+05:30,1597406.7099999995
2023-10-05 00:00:00+05:30,1595379.0599999996
2023-10-06 00:00:00+05:30,1596254.9599999995
2023-10-09 00:00:00+05:30,1587397.0099999995
2023-10-10 00:00:00+05:30,1588259.7099999995
2023-10-11 00:00:00+05:30,1588231.1099999994
2023-10-12 00:00:00+05:30,1592141.9599999995
2023-10-13 00:00:00+05:30,1594904.6599999995
2023-10-16 00:00:00+05:30,1597774.3599999994
2023-10-17 00:00:00+05:30,1599465.6599999995
2023-10-18 00:00:00+05:30,1595625.0599999996
2023-10-19 00:00:00+05:30,1594654.3599999994
2023-10-20 00:00:00+05:30,1570317.4599999995
2023-10-23 00:00:00+05:30,1563043.7599999995
2023-10-25 00:00:00+05:30,1563043.7599999995
2023-10-26 00:00:00+05:30,1563043.7599999995
2023-10-27 00:00:00+05:30,1563043.7599999995
2023-10-30 00:00:00+05:30,1563043.7599999995
2023-10-31 00:00:00+05:30,1563043.7599999995
2023-11-01 00:00:00+05:30,1563043.7599999995
2023-11-02 00:00:00+05:30,1563043.7599999995
2023-11-03 00:00:00+05:30,1563043.7599999995
2023-11-06 00:00:00+05:30,1563043.7599999995
2023-11-07 00:00:00+05:30,1563043.7599999995
2023-11-08 00:00:00+05:30,1563043.7599999995
2023-11-09 00:00:00+05:30,1563043.7599999995
2023-11-10 00:00:00+05:30,1563043.7599999995
2023-11-12 00:00:00+05:30,1563043.7599999995
2023-11-13 00:00:00+05:30,1564501.7599999998
2023-11-15 00:00:00+05:30,1572855.9599999997
2023-11-16 00:00:00+05:30,1577470.5599999996
2023-11-17 00:00:00+05:30,1583454.4099999997
2023-11-20 00:00:00+05:30,1578675.2599999998
2023-11-21 00:00:00+05:30,1583740.56
2023-11-22 00:00:00+05:30,1587218.9599999997
2023-11-23 00:00:00+05:30,1596866.6599999997
2023-11-24 00:00:00+05:30,1595630.4599999995
2023-11-28 00:00:00+05:30,1602452.4599999997
2023-11-29 00:00:00+05:30,1611655.8599999996
2023-11-30 00:00:00+05:30,1615361.0599999996
2023-12-01 00:00:00+05:30,1622324.5099999998
2023-12-04 00:00:00+05:30,1654568.9599999995
2023-12-05 00:00:00+05:30,1670443.1599999997
2023-12-06 00:00:00+05:30,1671551.0599999998
2023-12-07 00:00:00+05:30,1672084.1599999997
2023-12-08 00:00:00+05:30,1668217.0599999998
2023-12-11 00:00:00+05:30,1683240.3599999996
2023-12-12 00:00:00+05:30,1666562.7599999998
2023-12-13 00:00:00+05:30,1693324.8099999996
2023-12-14 00:00:00+05:30,1703488.8099999996
2023-12-15 00:00:00+05:30,1700989.9599999995
2023-12-18 00:00:00+05:30,1706939.7599999998
2023-12-19 00:00:00+05:30,1701847.3599999996
2023-12-20 00:00:00+05:30,1651015.01
2023-12-21 00:00:00+05:30,1675936.3099999998
2023-12-22 00:00:00+05:30,1677100.7099999995
2023-12-26 00:00:00+05:30,1696845.3599999996
2023-12-27 00:00:00+05:30,1691888.8599999996
2023-12-28 00:00:00+05:30,1702009.8399999999
2023-12-29 00:00:00+05:30,1701620.5899999996
2024-01-01 00:00:00+05:30,1727472.1599999997
2024-01-02 00:00:00+05:30,1719028.8299999996
2024-01-03 00:00:00+05:30,1720648.8299999996
2024-01-04 00:00:00+05:30,1745501.9599999997
2024-01-05 00:00:00+05:30,1736738.9499999997
2024-01-08 00:00:00+05:30,1721603.4199999995
2024-01-09 00:00:00+05:30,1725073.4799999995
2024-01-10 00:00:00+05:30,1723312.7199999995
2024-01-11 00:00:00+05:30,1740348.8399999999
2024-01-12 00:00:00+05:30,1727985.7999999998
2024-01-15 00:00:00+05:30,1728804.1999999997
2024-01-16 00:00:00+05:30,1739160.5799999996
2024-01-17 00:00:00+05:30,1723909.3699999996
2024-01-18 00:00:00+05:30,1722944.67
2024-01-19 00:00:00+05:30,1737105.3699999996
2024-01-20 00:00:00+05:30,1755448.7699999996
2024-01-23 00:00:00+05:30,1712566.6699999997
2024-01-24 00:00:00+05:30,1745965.5199999996
2024-01-25 00:00:00+05:30,1749517.0699999996
2024-01-29 00:00:00+05:30,1760969.0199999996
2024-01-30 00:00:00+05:30,1745694.4699999997
2024-01-31 00:00:00+05:30,1752519.4199999995
2024-02-01 00:00:00+05:30,1743048.9699999997
2024-02-02 00:00:00+05:30,1743747.7699999996
2024-02-05 00:00:00+05:30,1751398.4699999997
2024-02-06 00:00:00+05:30,1775809.3699999996
2024-02-07 00:00:00+05:30,1768837.3199999996
2024-02-08 00:00:00+05:30,1765049.4199999995
2024-02-09 00:00:00+05:30,1749398.4199999995
2024-02-12 00:00:00+05:30,1717144.4699999995
2024-02-13 00:00:00+05:30,1720357.1199999994
2024-02-14 00:00:00+05:30,1727744.0199999996
2024-02-15 00:00:00+05:30,1739570.5199999996
2024-02-16 00:00:00+05:30,1749251.5199999996
2024-02-19 00:00:00+05:30,1746922.9199999995
2024-02-20 00:00:00+05:30,1744714.2199999997
2024-02-21 00:00:00+05:30,1739315.3699999996
2024-02-22 00:00:00+05:30,1743876.9199999995
2024-02-23 00:00:00+05:30,1757727.1699999995
2024-02-26 00:00:00+05:30,1781539.4199999995
2024-02-27 00:00:00+05:30,1796899.27
2024-02-28 00:00:00+05:30,1774984.2699999996
2024-02-29 00:00:00+05:30,1775674.6699999995
2024-03-01 00:00:00+05:30,1807254.6699999995
2024-03-02 00:00:00+05:30,1829752.1199999992
2024-03-04 00:00:00+05:30,1829618.7699999996
2024-03-05 00:00:00+05:30,1817911.0199999996
2024-03-06 00:00:00+05:30,1784273.2699999993
2024-03-07 00:00:00+05:30,1795974.3699999994
2024-03-11 00:00:00+05:30,1764643.2199999993
2024-03-12 00:00:00+05:30,1743355.9199999995
2024-03-13 00:00:00+05:30,1682502.4199999995
2024-03-14 00:00:00+05:30,1698019.5699999994
2024-03-15 00:00:00+05:30,1699968.2699999996
2024-03-18 00:00:00+05:30,1695346.6199999996
2024-03-19 00:00:00+05:30,1682212.6199999994
2024-03-20 00:00:00+05:30,1680498.8199999994
2024-03-21 00:00:00+05:30,1706790.1699999995
2024-03-22 00:00:00+05:30,1708108.3699999994
2024-03-26 00:00:00+05:30,1722958.0699999994
2024-03-27 00:00:00+05:30,1716412.2199999995
2024-03-28 00:00:00+05:30,1729533.0699999994
2024-04-01 00:00:00+05:30,1741220.8199999994
2024-04-02 00:00:00+05:30,1758174.2199999993
2024-04-03 00:00:00+05:30,1768731.1199999994
2024-04-04 00:00:00+05:30,1772396.5199999996
2024-04-05 00:00:00+05:30,1769080.8699999996
2024-04-08 00:00:00+05:30,1783579.1199999994
2024-04-09 00:00:00+05:30,1786429.1699999995
2024-04-10 00:00:00+05:30,1799745.7699999996
2024-04-12 00:00:00+05:30,1798504.0699999996
2024-04-15 00:00:00+05:30,1790926.4699999993
2024-04-16 00:00:00+05:30,1783773.0699999994
2024-04-18 00:00:00+05:30,1794599.2699999993
2024-04-19 00:00:00+05:30,1795720.9199999995
2024-04-22 00:00:00+05:30,1802359.8699999992
2024-04-23 00:00:00+05:30,1814730.7699999996
2024-04-24 00:00:00+05:30,1826082.4699999993
2024-04-25 00:00:00+05:30,1817045.2199999993
2024-04-26 00:00:00+05:30,1812576.5699999994
2024-04-29 00:00:00+05:30,1806075.4699999993
2024-04-30 00:00:00+05:30,1818817.6699999995
2024-05-02 00:00:00+05:30,1826255.5699999994
2024-05-03 00:00:00+05:30,1827906.4699999993
2024-05-06 00:00:00+05:30,1821388.0699999991
2024-05-07 00:00:00+05:30,1808823.7699999993
2024-05-08 00:00:00+05:30,1842009.919999999
2024-05-09 00:00:00+05:30,1822231.019999999
2024-05-10 00:00:00+05:30,1861010.9699999993
2024-05-13 00:00:00+05:30,1879658.769999999
2024-05-14 00:00:00+05:30,1883700.9699999993
2024-05-15 00:00:00+05:30,1893376.5699999994
2024-05-16 00:00:00+05:30,1913243.7199999993
2024-05-17 00:00:00+05:30,1928431.4199999995
2024-05-18 00:00:00+05:30,1946016.8699999992
2024-05-21 00:00:00+05:30,1991445.0199999993
2024-05-22 00:00:00+05:30,1990203.5699999994
2024-05-23 00:00:00+05:30,1974418.8199999994
2024-05-24 00:00:00+05:30,1982642.8699999996
2024-05-27 00:00:00+05:30,1970126.2199999993
2024-05-28 00:00:00+05:30,1960374.269999999
2024-05-29 00:00:00+05:30,1970518.269999999
2024-05-30 00:00:00+05:30,1951734.4699999993
2024-05-31 00:00:00+05:30,1941989.719999999
2024-06-03 00:00:00+05:30,1963702.3699999992
2024-06-04 00:00:00+05:30,1872617.1199999992
2024-06-05 00:00:00+05:30,1913999.3199999994
2024-06-06 00:00:00+05:30,1970550.0699999994
2024-06-07 00:00:00+05:30,1973983.919999999
2024-06-10 00:00:00+05:30,2005873.269999999
2024-06-11 00:00:00+05:30,2013279.839999999
2024-06-12 00:00:00+05:30,2040488.2999999993
2024-06-13 00:00:00+05:30,2053300.359999999
2024-06-14 00:00:00+05:30,2057310.749999999
2024-06-18 00:00:00+05:30,2055267.629999999
2024-06-19 00:00:00+05:30,2051320.9099999988
2024-06-20 00:00:00+05:30,2061096.3499999992
2024-06-21 00:00:00+05:30,2062904.2399999993
2024-06-24 00:00:00+05:30,2072667.3699999996
2024-06-25 00:00:00+05:30,2072874.939999999
2024-06-26 00:00:00+05:30,2073219.459999999
2024-06-27 00:00:00+05:30,2055290.5099999988
2024-06-28 00:00:00+05:30,2050773.789999999
2024-07-01 00:00:00+05:30,2076961.8599999994
2024-07-02 00:00:00+05:30,2079626.5599999991
2024-07-03 00:00:00+05:30,2094240.5099999993
2024-07-04 00:00:00+05:30,2097085.2999999993
2024-07-05 00:00:00+05:30,2100413.789999999
2024-07-08 00:00:00+05:30,2097910.2199999993
2024-07-09 00:00:00+05:30,2108806.7799999993
2024-07-10 00:00:00+05:30,2107019.089999999
2024-07-11 00:00:00+05:30,2110869.919999999
2024-07-12 00:00:00+05:30,2109256.539999999
2024-07-15 00:00:00+05:30,2116583.849999999
2024-07-16 00:00:00+05:30,2120355.489999999
2024-07-18 00:00:00+05:30,2114055.879999999
2024-07-19 00:00:00+05:30,2073155.1099999992
2024-07-22 00:00:00+05:30,2075515.1299999992
2024-07-23 00:00:00+05:30,2076950.5899999994
2024-07-24 00:00:00+05:30,2098907.169999999
2024-07-25 00:00:00+05:30,2111302.5299999993
2024-07-26 00:00:00+05:30,2146475.1099999994
2024-07-29 00:00:00+05:30,2133518.2999999993
2024-07-30 00:00:00+05:30,2140668.119999999
2024-07-31 00:00:00+05:30,2147974.8899999997
2024-08-01 00:00:00+05:30,2134567.0299999993
2024-08-02 00:00:00+05:30,2138426.7399999993
2024-08-05 00:00:00+05:30,2075979.249999999
2024-08-06 00:00:00+05:30,2059855.489999999
2024-08-07 00:00:00+05:30,2110365.969999999
2024-08-08 00:00:00+05:30,2103032.559999999
2024-08-09 00:00:00+05:30,2101370.169999999
2024-08-12 00:00:00+05:30,2093198.999999999
2024-08-13 00:00:00+05:30,2086565.2199999993
2024-08-14 00:00:00+05:30,2083510.9899999993
2024-08-16 00:00:00+05:30,2105223.099999999
2024-08-19 00:00:00+05:30,2123522.169999999
2024-08-20 00:00:00+05:30,2124901.6499999994
2024-08-21 00:00:00+05:30,2138496.8399999994
2024-08-22 00:00:00+05:30,2159389.6899999995
2024-08-23 00:00:00+05:30,2162504.0899999994
2024-08-26 00:00:00+05:30,2166506.7399999993
2024-08-27 00:00:00+05:30,2176063.1799999992
2024-08-28 00:00:00+05:30,2176996.2199999993
2024-08-29 00:00:00+05:30,2159869.809999999
2024-08-30 00:00:00+05:30,2154694.899999999
2024-09-02 00:00:00+05:30,2159342.929999999
2024-09-03 00:00:00+05:30,2161295.0999999987
2024-09-04 00:00:00+05:30,2179762.219999999
2024-09-05 00:00:00+05:30,2190219.909999999
2024-09-06 00:00:00+05:30,2169707.929999999
2024-09-09 00:00:00+05:30,2165038.929999999
2024-09-10 00:00:00+05:30,2198118.579999999
2024-09-11 00:00:00+05:30,2212930.119999999
2024-09-12 00:00:00+05:30,2212363.199999999
2024-09-13 00:00:00+05:30,2229299.939999999
2024-09-16 00:00:00+05:30,2223573.899999999
2024-09-17 00:00:00+05:30,2218441.379999999
2024-09-18 00:00:00+05:30,2209352.4699999993
2024-09-19 00:00:00+05:30,2178763.439999999
2024-09-20 00:00:00+05:30,2199311.799999999
2024-09-23 00:00:00+05:30,2211885.5599999987
2024-09-24 00:00:00+05:30,2226931.259999999
2024-09-25 00:00:00+05:30,2226977.859999999
2024-09-26 00:00:00+05:30,2236212.1999999993
2024-09-27 00:00:00+05:30,2240395.0599999987
2024-09-30 00:00:00+05:30,2238442.669999999
2024-10-01 00:00:00+05:30,2226985.7199999993
2024-10-03 00:00:00+05:30,2184727.369999999
2024-10-04 00:00:00+05:30,2150152.019999999
2024-10-07 00:00:00+05:30,2110115.859999999
2024-10-08 00:00:00+05:30,2105796.609999999
2024-10-09 00:00:00+05:30,2111034.309999999
2024-10-10 00:00:00+05:30,2120019.909999999
2024-10-11 00:00:00+05:30,2124576.159999999
2024-10-14 00:00:00+05:30,2122884.359999999
2024-10-15 00:00:00+05:30,2122852.809999999
2024-10-16 00:00:00+05:30,2126001.359999999
2024-10-17 00:00:00+05:30,2126026.159999999
2024-10-18 00:00:00+05:30,2118266.159999999
2024-10-21 00:00:00+05:30,2114431.3599999994
2024-10-22 00:00:00+05:30,2094755.709999999
2024-10-23 00:00:00+05:30,2102243.009999999
2024-10-24 00:00:00+05:30,2168268.059999999
2024-10-25 00:00:00+05:30,2169044.259999999
2024-10-28 00:00:00+05:30,2177990.709999999
2024-10-29 00:00:00+05:30,2181662.559999999
2024-10-30 00:00:00+05:30,2182630.959999999
2024-10-31 00:00:00+05:30,2181299.409999999
2024-11-01 00:00:00+05:30,2194305.559999999
2024-11-04 00:00:00+05:30,2194387.959999999
2024-11-05 00:00:00+05:30,2193687.559999999
2024-11-06 00:00:00+05:30,2194212.8599999994
2024-11-07 00:00:00+05:30,2197189.559999999
2024-11-08 00:00:00+05:30,2189619.059999999
2024-11-11 00:00:00+05:30,2184829.559999999
2024-11-12 00:00:00+05:30,2188733.2599999993
2024-11-13 00:00:00+05:30,2171089.3599999994
2024-11-14 00:00:00+05:30,2177186.959999999
2024-11-18 00:00:00+05:30,2161685.459999999
2024-11-19 00:00:00+05:30,2160449.459999999
2024-11-21 00:00:00+05:30,2164332.559999999
2024-11-22 00:00:00+05:30,2168823.3599999994
2024-11-25 00:00:00+05:30,2187692.959999999
2024-11-26 00:00:00+05:30,2187692.959999999
2024-11-27 00:00:00+05:30,2187692.959999999
2024-11-28 00:00:00+05:30,2187692.959999999
2024-11-29 00:00:00+05:30,2187692.959999999
2024-12-02 00:00:00+05:30,2187692.959999999
2024-12-03 00:00:00+05:30,2187692.959999999
2024-12-04 00:00:00+05:30,2200022.8099999987
2024-12-05 00:00:00+05:30,2199627.109999999
2024-12-06 00:00:00+05:30,2197069.009999999
2024-12-09 00:00:00+05:30,2200999.3099999987
2024-12-10 00:00:00+05:30,2207359.649999999
2024-12-11 00:00:00+05:30,2199485.609999999
2024-12-12 00:00:00+05:30,2193815.9799999986
2024-12-13 00:00:00+05:30,2191360.8899999987
2024-12-16 00:00:00+05:30,2204753.529999999
2024-12-17 00:00:00+05:30,2183373.9699999993
2024-12-18 00:00:00+05:30,2171324.489999999
2024-12-19 00:00:00+05:30,2171188.779999999
2024-12-20 00:00:00+05:30,2098611.149999999
2024-12-23 00:00:00+05:30,2093717.419999999
2024-12-24 00:00:00+05:30,2094704.859999999
2024-12-26 00:00:00+05:30,2093458.5099999988
2024-12-27 00:00:00+05:30,2100312.569999999
2024-12-30 00:00:00+05:30,2125964.459999999
2024-12-31 00:00:00+05:30,2135703.619999999
2025-01-01 00:00:00+05:30,2146809.659999999
2025-01-02 00:00:00+05:30,2150772.999999999
2025-01-03 00:00:00+05:30,2173553.049999999
2025-01-06 00:00:00+05:30,2166428.4899999993
2025-01-07 00:00:00+05:30,2164164.559999999
2025-01-08 00:00:00+05:30,2152447.249999999
2025-01-09 00:00:00+05:30,2124603.329999999
2025-01-10 00:00:00+05:30,2115116.359999999
2025-01-13 00:00:00+05:30,2099943.519999999
2025-01-14 00:00:00+05:30,2103261.919999999
2025-01-15 00:00:00+05:30,2107803.869999999
2025-01-16 00:00:00+05:30,2114761.669999999
2025-01-17 00:00:00+05:30,2115890.819999999
2025-01-20 00:00:00+05:30,2115525.219999999
2025-01-21 00:00:00+05:30,2116485.269999999
2025-01-22 00:00:00+05:30,2117983.169999999
2025-01-23 00:00:00+05:30,2118867.719999999
2025-01-24 00:00:00+05:30,2115277.619999999
2025-01-27 00:00:00+05:30,2109745.619999999
2025-01-28 00:00:00+05:30,2109745.619999999
2025-01-29 00:00:00+05:30,2109745.619999999
2025-01-30 00:00:00+05:30,2109745.619999999
2025-01-31 00:00:00+05:30,2109745.619999999
2025-02-01 00:00:00+05:30,2109745.619999999
2025-02-03 00:00:00+05:30,2109745.619999999
2025-02-04 00:00:00+05:30,2109745.619999999
2025-02-05 00:00:00+05:30,2112597.2699999996
2025-02-06 00:00:00+05:30,2111834.7699999996
2025-02-07 00:00:00+05:30,2109487.369999999
2025-02-10 00:00:00+05:30,2101373.9699999993
2025-02-11 00:00:00+05:30,2084571.8199999994
2025-02-12 00:00:00+05:30,2086318.8199999994
2025-02-13 00:00:00+05:30,2090872.5699999994
2025-02-14 00:00:00+05:30,2086281.3699999994
2025-02-17 00:00:00+05:30,2095226.1199999992
2025-02-18 00:00:00+05:30,2095461.5199999993
2025-02-19 00:00:00+05:30,2100156.4699999993
2025-02-20 00:00:00+05:30,2090111.6699999992
2025-02-21 00:00:00+05:30,2085504.5699999994
2025-02-24 00:00:00+05:30,2085008.9199999992
2025-02-25 00:00:00+05:30,2086000.2199999993
2025-02-27 00:00:00+05:30,2084340.8699999992
2025-02-28 00:00:00+05:30,2079729.1699999992
2025-03-03 00:00:00+05:30,2072725.4199999992
2025-03-04 00:00:00+05:30,2071303.1199999992
2025-03-05 00:00:00+05:30,2077531.0699999994
2025-03-06 00:00:00+05:30,2076173.4199999992
2025-03-07 00:00:00+05:30,2078393.0699999994
2025-03-10 00:00:00+05:30,2072186.6699999992
2025-03-11 00:00:00+05:30,2072014.2699999993
2025-03-12 00:00:00+05:30,2068997.2699999993
2025-03-13 00:00:00+05:30,2066152.6699999992
2025-03-17 00:00:00+05:30,2076798.3699999992
2025-03-18 00:00:00+05:30,2080698.9199999992
2025-03-19 00:00:00+05:30,2080698.9199999992
2025-03-20 00:00:00+05:30,2080698.9199999992
2025-03-21 00:00:00+05:30,2080698.9199999992
2025-03-24 00:00:00+05:30,2080698.9199999992
2025-03-25 00:00:00+05:30,2079544.519999999
2025-03-26 00:00:00+05:30,2079692.7199999993
2025-03-27 00:00:00+05:30,2078273.1199999992
2025-03-28 00:00:00+05:30,2080090.519999999
2025-04-01 00:00:00+05:30,2090534.7199999993
2025-04-02 00:00:00+05:30,2097643.0699999994
2025-04-03 00:00:00+05:30,2096708.8699999992
2025-04-04 00:00:00+05:30,2084149.8199999994
2025-04-07 00:00:00+05:30,2065482.0199999993
2025-04-08 00:00:00+05:30,2086617.6199999992
2025-04-09 00:00:00+05:30,2076591.6199999992
2025-04-11 00:00:00+05:30,2087247.0199999993
2025-04-15 00:00:00+05:30,2114355.3199999994
2025-04-16 00:00:00+05:30,2115758.119999999
2025-04-17 00:00:00+05:30,2111343.619999999
2025-04-21 00:00:00+05:30,2122237.519999999
2025-04-22 00:00:00+05:30,2124612.3199999994
2025-04-23 00:00:00+05:30,2136900.919999999
2025-04-24 00:00:00+05:30,2139904.519999999
2025-04-25 00:00:00+05:30,2133822.619999999
2025-04-28 00:00:00+05:30,2135626.519999999
2025-04-29 00:00:00+05:30,2147611.0699999994
2025-04-30 00:00:00+05:30,2127282.3199999994
2025-05-02 00:00:00+05:30,2126148.3199999994
2025-05-05 00:00:00+05:30,2134228.8199999994
2025-05-06 00:00:00+05:30,2114939.849999999
2025-05-07 00:00:00+05:30,2140217.499999999
2025-05-08 00:00:00+05:30,2119461.079999999
2025-05-09 00:00:00+05:30,2117423.139999999
2025-05-12 00:00:00+05:30,2164992.579999999
2025-05-13 00:00:00+05:30,2170574.9299999992
2025-05-14 00:00:00+05:30,2174202.659999999
2025-05-15 00:00:00+05:30,2184737.9399999995
2025-05-16 00:00:00+05:30,2185710.8899999997
2025-05-19 00:00:00+05:30,2195548.9699999993
2025-05-20 00:00:00+05:30,2183718.2799999993
2025-05-21 00:00:00+05:30,2202803.019999999
2025-05-22 00:00:00+05:30,2192337.9899999993
2025-05-23 00:00:00+05:30,2202620.809999999
2025-05-26 00:00:00+05:30,2208188.539999999
2025-05-27 00:00:00+05:30,2206727.889999999
2025-05-28 00:00:00+05:30,2207021.869999999
2025-05-29 00:00:00+05:30,2218779.3399999994
2025-05-30 00:00:00+05:30,2223770.5699999994
2025-06-02 00:00:00+05:30,2234953.7199999993
2025-06-03 00:00:00+05:30,2229215.669999999
2025-06-04 00:00:00+05:30,2233179.4699999993
2025-06-05 00:00:00+05:30,2234132.139999999
2025-06-06 00:00:00+05:30,2262756.2399999993
2025-06-09 00:00:00+05:30,2277473.169999999
2025-06-10 00:00:00+05:30,2285883.709999999
2025-06-11 00:00:00+05:30,2301033.8099999987
2025-06-12 00:00:00+05:30,2278949.259999999
2025-06-13 00:00:00+05:30,2267338.159999999
2025-06-16 00:00:00+05:30,2270273.549999999
2025-06-17 00:00:00+05:30,2254021.9499999993
2025-06-18 00:00:00+05:30,2248739.0499999993
2025-06-19 00:00:00+05:30,2215976.2999999993
2025-06-20 00:00:00+05:30,2214223.0499999993
2025-06-23 00:00:00+05:30,2222285.349999999
2025-06-24 00:00:00+05:30,2216393.2999999993
2025-06-25 00:00:00+05:30,2241168.8999999994
2025-06-26 00:00:00+05:30,2242833.6999999993
2025-06-27 00:00:00+05:30,2244679.4499999993
2025-06-30 00:00:00+05:30,2266557.749999999
2025-07-01 00:00:00+05:30,2272466.1999999993
2025-07-02 00:00:00+05:30,2270170.3999999994
2025-07-03 00:00:00+05:30,2280218.1999999993
2025-07-04 00:00:00+05:30,2282423.3999999994
2025-07-07 00:00:00+05:30,2278456.1999999993
2025-07-08 00:00:00+05:30,2272729.3599999994
2025-07-09 00:00:00+05:30,2265436.8999999994
2025-07-10 00:00:00+05:30,2277199.5599999996
2025-07-11 00:00:00+05:30,2317035.829999999
2025-07-14 00:00:00+05:30,2330985.2799999993
2025-07-15 00:00:00+05:30,2347704.4899999993
2025-07-16 00:00:00+05:30,2342195.129999999
2025-07-17 00:00:00+05:30,2343410.7799999993
2025-07-18 00:00:00+05:30,2334967.329999999
2025-07-21 00:00:00+05:30,2318350.8399999994
2025-07-22 00:00:00+05:30,2312059.669999999
2025-07-23 00:00:00+05:30,2319709.539999999
2025-07-24 00:00:00+05:30,2313625.6999999993
2025-07-25 00:00:00+05:30,2295683.659999999
2025-07-28 00:00:00+05:30,2292240.119999999
2025-07-29 00:00:00+05:30,2304265.7599999993
2025-07-30 00:00:00+05:30,2301226.1299999994
2025-07-31 00:00:00+05:30,2296542.1099999994
2025-08-01 00:00:00+05:30,2293170.2799999993
2025-08-04 00:00:00+05:30,2296973.9699999993
2025-08-05 00:00:00+05:30,2297621.7599999993
2025-08-06 00:00:00+05:30,2292389.6099999994
2025-08-07 00:00:00+05:30,2293768.2399999993
2025-08-08 00:00:00+05:30,2292273.3399999994
2025-08-11 00:00:00+05:30,2294432.639999999
2025-08-12 00:00:00+05:30,2295861.099999999
2025-08-13 00:00:00+05:30,2299880.7199999993
2025-08-14 00:00:00+05:30,2297953.959999999
2025-08-18 00:00:00+05:30,2304730.8399999994
2025-08-19 00:00:00+05:30,2304730.8399999994
2025-08-20 00:00:00+05:30,2304730.8399999994
2025-08-21 00:00:00+05:30,2304730.8399999994
2025-08-22 00:00:00+05:30,2305098.8399999994
2025-08-25 00:00:00+05:30,2304132.8399999994
2025-08-26 00:00:00+05:30,2304730.8399999994
2025-08-28 00:00:00+05:30,2300498.8399999994
2025-08-29 00:00:00+05:30,2293828.8399999994
2025-09-01 00:00:00+05:30,2293552.8399999994
2025-09-02 00:00:00+05:30,2288584.8399999994
2025-09-03 00:00:00+05:30,2292770.8399999994
2025-09-04 00:00:00+05:30,2293644.8399999994
2025-09-05 00:00:00+05:30,2296588.8399999994
2025-09-08 00:00:00+05:30,2296542.8399999994
2025-09-09 00:00:00+05:30,2296818.8399999994
2025-09-10 00:00:00+05:30,2294641.6899999995
2025-09-11 00:00:00+05:30,2306616.0399999996
2025-09-12 00:00:00+05:30,2312035.2899999996
2025-09-15 00:00:00+05:30,2317967.6399999997
2025-09-16 00:00:00+05:30,2326050.7999999993
2025-09-17 00:00:00+05:30,2319619.659999999
2025-09-18 00:00:00+05:30,2317354.9999999995
2025-09-19 00:00:00+05:30,2324596.2399999993
2025-09-22 00:00:00+05:30,2323928.8599999994
2025-09-23 00:00:00+05:30,2338889.369999999
2025-09-24 00:00:00+05:30,2344482.9599999995
2025-09-25 00:00:00+05:30,2335118.7099999995
2025-09-26 00:00:00+05:30,2308712.2799999993
2025-09-29 00:00:00+05:30,2294993.9099999997
2025-09-30 00:00:00+05:30,2311921.5399999996
2025-10-01 00:00:00+05:30,2300752.0099999993
2025-10-03 00:00:00+05:30,2310282.6599999997
2025-10-06 00:00:00+05:30,2311458.2099999995
2025-10-07 00:00:00+05:30,2319512.51
2025-10-08 00:00:00+05:30,2311862.26
2025-10-09 00:00:00+05:30,2311943.2099999995
2025-10-10 00:00:00+05:30,2302892.96
2025-10-13 00:00:00+05:30,2287845.8599999994
2025-10-14 00:00:00+05:30,2271835.4599999995
2025-10-15 00:00:00+05:30,2288549.0099999993
2025-10-16 00:00:00+05:30,2287131.9099999997
2025-10-17 00:00:00+05:30,2272457.7099999995
2025-10-20 00:00:00+05:30,2285930.3599999994
2025-10-21 00:00:00+05:30,2296053.7099999995
2025-10-23 00:00:00+05:30,2285676.909999999
2025-10-24 00:00:00+05:30,2283042.3599999994
2025-10-27 00:00:00+05:30,2270901.3099999996
2025-10-28 00:00:00+05:30,2276253.2399999993
2025-10-29 00:00:00+05:30,2291442.8099999996
2025-10-30 00:00:00+05:30,2289305.0299999993
2025-10-31 00:00:00+05:30,2287187.6499999994
2025-11-03 00:00:00+05:30,2303029.099999999
2025-11-04 00:00:00+05:30,2306775.289999999
2025-11-06 00:00:00+05:30,2278627.8999999994
2025-11-07 00:00:00+05:30,2312759.9399999995
2025-11-10 00:00:00+05:30,2329851.4399999995
2025-11-11 00:00:00+05:30,2341469.9399999995
2025-11-12 00:00:00+05:30,2346630.5599999996
2025-11-13 00:00:00+05:30,2337106.1799999992
2025-11-14 00:00:00+05:30,2333936.709999999
2025-11-17 00:00:00+05:30,2362188.209999999
2025-11-18 00:00:00+05:30,2353870.869999999
2025-11-19 00:00:00+05:30,2345821.599999999
2025-11-20 00:00:00+05:30,2338066.0699999994
2025-11-21 00:00:00+05:30,2329593.9599999995
2025-11-24 00:00:00+05:30,2337517.999999999
2025-11-25 00:00:00+05:30,2373872.659999999
2025-11-26 00:00:00+05:30,2376823.9199999995
2025-11-27 00:00:00+05:30,2370630.7999999993
2025-11-28 00:00:00+05:30,2372740.7599999993
2025-12-01 00:00:00+05:30,2371982.7299999995
2025-12-02 00:00:00+05:30,2366413.059999999
2025-12-03 00:00:00+05:30,2358381.139999999
2025-12-04 00:00:00+05:30,2366938.1099999994
2025-12-05 00:00:00+05:30,2364645.329999999
2025-12-08 00:00:00+05:30,2337081.9299999997
2025-12-09 00:00:00+05:30,2352940.159999999
2025-12-10 00:00:00+05:30,2351243.26
2025-12-11 00:00:00+05:30,2356279.4799999995
2025-12-12 00:00:00+05:30,2356177.4599999995
2025-12-15 00:00:00+05:30,2352191.2399999993
2025-12-16 00:00:00+05:30,2338365.909999999
2025-12-17 00:00:00+05:30,2339976.5799999996
2025-12-18 00:00:00+05:30,2334091.9899999993
2025-12-19 00:00:00+05:30,2343740.2599999993
2025-12-22 00:00:00+05:30,2353629.4799999995
2025-12-23 00:00:00+05:30,2356986.869999999
2025-12-24 00:00:00+05:30,2357094.6799999997
2025-12-26 00:00:00+05:30,2347923.9399999995
2025-12-29 00:00:00+05:30,2338746.6999999993
2025-12-30 00:00:00+05:30,2347158.3199999994
2025-12-31 00:00:00+05:30,2358570.3299999996
2026-01-01 00:00:00+05:30,2356720.9099999997
2026-01-02 00:00:00+05:30,2353912.8299999996
2026-01-05 00:00:00+05:30,2351153.5799999996
2026-01-06 00:00:00+05:30,2366562.4799999995
2026-01-07 00:00:00+05:30,2363972.3799999994
2026-01-08 00:00:00+05:30,2351768.1799999997
2026-01-09 00:00:00+05:30,2342417.4799999995
2026-01-12 00:00:00+05:30,2345183.1799999997
2026-01-13 00:00:00+05:30,2343910.0799999996
2026-01-14 00:00:00+05:30,2342900.3799999994
2026-01-16 00:00:00+05:30,2343075.9799999995
2026-01-19 00:00:00+05:30,2342373.5799999996
2026-01-20 00:00:00+05:30,2342373.5799999996
2026-01-21 00:00:00+05:30,2342373.5799999996
2026-01-22 00:00:00+05:30,2342373.5799999996
2026-01-23 00:00:00+05:30,2342373.5799999996
2026-01-27 00:00:00+05:30,2342373.5799999996
2026-01-28 00:00:00+05:30,2342373.5799999996
2026-01-29 00:00:00+05:30,2342373.5799999996
2026-01-30 00:00:00+05:30,2342373.5799999996
2026-02-01 00:00:00+05:30,2342373.5799999996
2026-02-02 00:00:00+05:30,2342373.5799999996
2026-02-03 00:00:00+05:30,2342373.5799999996
2026-02-04 00:00:00+05:30,2361785.5799999996
2026-02-05 00:00:00+05:30,2364995.5799999996
2026-02-06 00:00:00+05:30,2369937.5799999996
2026-02-09 00:00:00+05:30,2390245.5799999996
2026-02-10 00:00:00+05:30,2371278.8799999994
2026-02-11 00:00:00+05:30,2352029.0799999996
2026-02-12 00:00:00+05:30,2382593.6799999997
2026-02-13 00:00:00+05:30,2388221.28
2026-02-16 00:00:00+05:30,2385965.78
2026-02-17 00:00:00+05:30,2397571.1299999994
2026-02-18 00:00:00+05:30,2396418.4799999995
2026-02-19 00:00:00+05:30,2355721.8799999994
2026-02-20 00:00:00+05:30,2387143.1799999992
2026-02-23 00:00:00+05:30,2386513.3799999994
2026-02-24 00:00:00+05:30,2382966.6699999995
2026-02-25 00:00:00+05:30,2397285.0999999996
2026-02-26 00:00:00+05:30,2397233.0399999996
2026-02-27 00:00:00+05:30,2376400.0999999996
2026-03-02 00:00:00+05:30,2338436.5599999996
2026-03-04 00:00:00+05:30,2267657.96
2026-03-05 00:00:00+05:30,2286176.8099999996
2026-03-06 00:00:00+05:30,2283642.71
2026-03-09 00:00:00+05:30,2267944.51
2026-03-10 00:00:00+05:30,2285474.01
2026-03-11 00:00:00+05:30,2293575.5599999996
2026-03-12 00:00:00+05:30,2305919.01
2026-03-13 00:00:00+05:30,2276345.1599999997
2026-03-16 00:00:00+05:30,2272201.26
2026-03-17 00:00:00+05:30,2288949.3599999994
2026-03-18 00:00:00+05:30,2285456.5599999996
2026-03-19 00:00:00+05:30,2267617.6599999997
2026-03-20 00:00:00+05:30,2272497.46
2026-03-23 00:00:00+05:30,2259592.76
2026-03-24 00:00:00+05:30,2273419.76
2026-03-25 00:00:00+05:30,2272605.76
2026-03-27 00:00:00+05:30,2267358.76
2026-03-30 00:00:00+05:30,2261330.76
